Wavelength / um,Transmission @ 40C,Transmission @ 65C,Transmission @ 80C
1554.2158103856711,0.5533429542223526,0.9805712061780812,0.6173732624627721
1554.2073474149886,0.5648376777500739,0.9633561733829418,0.5988584237811674
1554.1988845364704,0.5782222833405655,0.9416935142543381,0.5823239611300818
1554.1904217501144,0.5935568807144986,0.9164489167546651,0.5677502952733899
1554.1819590559198,0.6108863801065486,0.8885548818305922,0.5550954785503768
1554.1734964538846,0.6302300734567995,0.8589401532165434,0.5443032170009969
1554.165033944008,0.6515740277142968,0.8284693487055123,0.5353131139920967
1554.1565715262875,0.6748656368717353,0.7978990643843504,0.5280709032388671
1554.1481092007223,0.7000079705341251,0.7678535312274722,0.5225360600054212
1554.1396469673107,0.726850873495047,0.738819364456013,0.5186849590396855
1554.1311848260514,0.7551765797720003,0.7111558110606442,0.5165093170580665
1554.1227227769423,0.7846798260147658,0.6851148418555857,0.5160113405542651
1554.1142608199825,0.814945449329338,0.6608648553480285,0.5171980952268183
1554.10579895517,0.8454292390557854,0.6385126720960377,0.5200776774509092
1554.0973371825041,0.8754493534443862,0.6181205073539233,0.5246587860426909
1554.0888755019826,0.9041951990067931,0.5997170415223068,0.5309536761146557
1554.080413913604,0.9307581474213151,0.5833038075300248,0.5389828840135558
1554.071952417367,0.9541843256918252,0.5688593076125004,0.5487791911457762
1554.06349101327,0.9735449330986595,0.5563433106523213,0.5603883951185972
1554.0550297013117,0.9880153265080346,0.5457028430118899,0.5738655199268802
1554.0465684814903,0.9969515443759935,0.5368799566283488,0.5892666566322012
1554.0381073538044,0.9999526647738978,0.5298200592645843,0.6066380173788288
1554.029646318253,0.9968994821736094,0.5244789378331165,0.6260044153003729
1554.0211853748337,0.9879639347284922,0.5208268211810464,0.6473589816919493
1554.0127245235456,0.9735886017281224,0.5188487790177393,0.6706546793365562
1554.0042637643871,0.9544403518215107,0.5185420142930444,0.6957966389702819
1553.9958030973564,0.9313459081675318,0.5199116425007895,0.7226332809489769
1553.987342522452,0.9052190872046835,0.5229669347277133,0.7509442060028578
1553.978882039673,0.8769895727806382,0.52771957876526,0.7804241746509419
1553.9704216490175,0.8475415270623851,0.5341844622775558,0.8106648473961695
1553.961961350484,0.8176676370875201,0.5423822349511195,0.8411385709908283
1553.9535011440707,0.7880410152551222,0.5523419674264721,0.8711903930956971
1553.9450410297766,0.7592043607659404,0.5641019653340941,0.9000448095087417
1553.9365810076001,0.7315734509233501,0.5777073037418674,0.9268320671334364
1553.9281210775393,0.7054506559013403,0.5932036890660358,0.9506353486177952
1553.919661239593,0.6810438176415446,0.6106283794785862,0.9705556330775947
1553.9112014937598,0.6584863617398673,0.6299996183625381,0.9857866224595505
1553.9027418400383,0.6378556403188633,0.651306054702705,0.9956890451374886
1553.8942822784263,0.619187885171735,0.6744969504245776,0.999852771823083
1553.885822808923,0.602489447502682,0.6994729473832936,0.998136801088164
1553.8773634315266,0.5877449509576711,0.7260763239624864,0.9906809259842032
1553.8689041462358,0.5749234490648284,0.7540795315235779,0.9778878709684135
1553.8604449530487,0.5639836569425826,0.783171633846345,0.9603797082398495
1553.8519858519642,0.554878946967919,0.8129439525252654,0.9389363055632922
1553.8435268429805,0.5475622635364504,0.8428782285258297,0.9144256556286149
1553.8350679260966,0.5419906450053548,0.8723421814619933,0.887735944153642
1553.8266091013104,0.5381288066786564,0.900597743113215,0.8597174068020499
1553.8181503686205,0.5359513021592603,0.9268260144453992,0.8311390668230152
1553.8096917280254,0.5354430880791552,0.9501701911004637,0.8026621566074231
1553.8012331795242,0.536598725094471,0.9697938912157693,0.7748291512841712
1553.7927747231147,0.5394207789424023,0.9849484556400385,0.7480653743640007
1553.7843163587954,0.5439180976810458,0.9950399357487093,0.7226892439209301
1553.7758580865652,0.5501044848791469,0.9996854842623071,0.6989272906782767
1553.7673999064225,0.5579979209771306,0.9987500882604979,0.6769307870150207
1553.7589418183654,0.5676200506318718,0.9923578033192224,0.6567918137085025
1553.7504838223929,0.5789953209608751,0.9808761049174878,0.638557551406525
1553.7420259185033,0.5921490503622026,0.9648766006730474,0.6222423294717913
1553.733568106695,0.6071038607330222,0.9450790758519064,0.607837437457788
1553.7251103869664,0.6238742416455091,0.9222878976778975,0.5953189401726418
1553.7166527593165,0.6424593857991339,0.8973298855823441,0.5846538149855293
1553.7081952237436,0.6628346889986979,0.871001086777027,0.5758047261255157
1553.6997377802456,0.6849423612282737,0.8440271037547324,0.5687337142795239
1553.6912804288218,0.7086814774440549,0.8170385101056455,0.5634050306560784
1553.68282316947,0.7338976453504541,0.7905602104227127,0.559787286191805
1553.6743660021896,0.7603724711219509,0.7650118429179578,0.5578550209600524
1553.665908926978,0.7878133121423192,0.740715642221235,0.5575897356280171
1553.6574519438348,0.8158444405250704,0.717908413259068,0.5589803812760233
1553.6489950527575,0.8440015523114667,0.6967550566362388,0.5620232882499838
1553.6405382537455,0.8717322435754304,0.6773620294811584,0.5667215295994013
1553.6320815467964,0.8984052738333086,0.6597899117825408,0.5730837462490967
1553.6236249319093,0.923330857409665,0.6440647291444155,0.5811224863044548
1553.6151684090823,0.9457927723015855,0.6301878753831311,0.5908521086461719
1553.6067119783147,0.9650909344313794,0.6181445045351968,0.6022862615876934
1553.598255639604,0.9805906968300488,0.6079102662043765,0.6154348789624096
1553.5897993929493,0.991773098791583,0.5994563361027095,0.6303005607521293
1553.581343238349,0.9982791982001852,0.5927528575398562,0.6468741516747608
1553.5728871758013,0.9999418652964946,0.5877711001032636,0.6651293238909379
1553.5644312053048,0.9968000635866758,0.58448476993503,0.6850160246745012
1553.5559753268583,0.9890933893445414,0.5828709049316521,0.7064527722654261
1553.5475195404604,0.9772378830385083,0.5829106479273675,0.7293179729314498
1553.539063846109,0.9617871263227618,0.5845899640559464,0.7534406862408125
1553.5306082438028,0.9433847280083791,0.5879001456396984,0.7785915748874463
1553.5221527335405,0.9227150638464744,0.59283781680235,0.8044751173196992
1553.5136973153208,0.9004585053726096,0.5994041571083308,0.830724487116991
1553.5052419891415,0.8772556410700502,0.6076031950713081,0.8569007315600375
1553.4967867550015,0.8536826925291527,0.6174392123634986,0.8824979063414953
1553.4883316128994,0.8302380684265092,0.6289134593929017,0.9069555360602861
1553.4798765628339,0.8073382877960539,0.6420204405030154,0.9296791012932052
1553.4714216048028,0.7853206191413493,0.6567439575972447,0.9500682130435744
1553.4629667388049,0.7644497273348427,0.6730529380555765,0.967550843325541
1553.454511964839,0.7449261705717168,0.6908968953574899,0.9816206628761173
1553.4460572829034,0.7268954008077664,0.7102007725873071,0.9918734885233316
1553.4376026929965,0.7104566605434326,0.7308589724198645,0.9980383560673052
1553.4291481951168,0.695671621643118,0.7527286057042332,0.9999990141904516
1553.420693789263,0.6825727283705516,0.775622358788776,0.9978027243896441
1553.4122394754336,0.6711710838166929,0.7993018023232686,0.9916549990486271
1553.4037852536267,0.6614635309194347,0.8234723316702436,0.9819009870619428
1553.395331123841,0.6534384914240439,0.8477811361006405,0.9689961950678586
1553.3868770860754,0.647080224630802,0.8718195657489961,0.953470691694308
1553.3784231403279,0.6423714325198484,0.8951309716174575,0.9358915822086888
1553.3699692865969,0.6392944626520433,0.9172245531818161,0.9168282629380174
1553.3615155248813,0.63783160814898,0.9375950212723363,0.8968238953481006
1553.3530618551797,0.6379650706440233,0.95574706501832,0.8763749890676791
1553.3446082774901,0.6396770109712282,0.9712228161025834,0.8559193520481279
1553.3361547918112,0.6429498241953823,0.9836298567099756,0.835831330194704
1553.3277013981417,0.6477664604671675,0.9926669388923877,0.8164224679765141
1553.3192480964801,0.6541103982521391,0.9981445689067445,0.7979455436871281
1553.3107948868244,0.6619648435923444,0.9999980107245952,0.7806002584430094
1553.3023417691736,0.6713108826827124,0.9982910626833235,0.7645394574113056
1553.293888743526,0.6821245837282299,0.9932100666446771,0.7498753752670415
1553.2854358098803,0.6943733131507007,0.985048853468503,0.7366858229587495
1553.2769829682345,0.7080116925684427,0.9741864982581736,0.7250203810940954
1553.2685302185876,0.7229776201130069,0.9610606358822175,0.7149065727952633
1553.2600775609378,0.7391886307217932,0.9461395022926056,0.7063557808787424
1553.2516249952841,0.7565386585741714,0.9298957446873829,0.6993685017722963
1553.2431725216243,0.7748951036259762,0.9127844260434221,0.6939385036258314
1553.2347201399573,0.7940960867388589,0.8952266905575291,0.6900556096507515
1553.2262678502814,0.813947937204096,0.8775994816451003,0.687707104290811
1553.2178156525954,0.8342232482805471,0.8602307515410997,0.6868780481801738
1553.2093635468975,0.8546601524649561,0.8433989579120136,0.6875509714534331
1553.2009115331864,0.8749636755342483,0.8273353968040823,0.6897054224276099
1553.1924596114604,0.8948100179027431,0.812228046366599,0.6933176817978344
1553.1840077817183,0.9138543396502201,0.7982259706749745,0.6983606840339851
1553.1755560439583,0.9317421300450602,0.7854437868704304,0.704803928690848
1553.167104398179,0.9481236335948333,0.7739660721221939,0.7126130193472395
1553.158652844379,0.9626702281104893,0.7638517784197977,0.7217484916314785
1553.1502013825566,0.9750912423423433,0.7551387171661602,0.7321637705655055
1553.1417500127104,0.9851495486419005,0.7478480332189349,0.7438023566001348
1553.1332987348387,0.9926743878046805,0.7419884150074959,0.7565945768827064
1553.1248475489408,0.9975702306764561,0.7375596869212833,0.770454365644689
1553.1163964550142,0.9998209641907715,0.73455546250472,0.785276517269267
1553.1079454530577,0.9994892078007243,0.7329646986336854,0.8009347124926935
1553.0994945430698,0.9967110383688296,0.7327722206596808,0.8172804270812373
1553.0910437250495,0.9916867798138125,0.7339584963499335,0.8341426838615865
1553.0825929989949,0.9846687838227289,0.7364990418666398,0.8513285700173032
1553.074142364904,0.9759472955256087,0.7403638082650594,0.868624525660953
1553.0656918227762,0.9658355726527466,0.7455167412409617,0.8857985702634035
1553.0572413726097,0.9546554104303824,0.7519154973094543,0.9026037821133818
1553.0487910144025,0.942724111181986,0.7595111232355922,0.9187833887603916
1553.0403407481535,0.9303437223461656,0.7682474340494982,0.9340777034918787
1553.0318905738613,0.9177930590901435,0.7780598866896623,0.9482328555789556
1553.0234404915248,0.9053226618578929,0.7888739163185183,0.9610108764221611
1553.0149905011413,0.8931524727715616,0.8006029139785332,0.9722003295007685
1553.0065406027102,0.8814717166926014,0.8131461967002664,0.9816264244578359
1552.9980907962297,0.8704403022199829,0.8263873918037561,0.9891595152438324
1552.9896410816987,0.8601910440358457,0.840193605143267,0.994721066920664
1552.981191459115,0.8508321377842076,0.8544155954512686,0.9982865367275212
1552.9727419284775,0.8424495381104685,0.8688889956648366,0.99988505333353
1552.964292489785,0.8351091249725686,0.8834364756805574,0.9995961845016367
1552.9558431430355,0.82885871754464,0.8978706777881856,0.9975443669228002
1552.9473938882277,0.8237300644993201,0.9119977824984412,0.9938916959201268
1552.93894472536,0.8197408993872903,0.9256216440761442,0.9888297519479556
1552.930495654431,0.8168970376203353,0.9385485106942111,0.9825710321729109
1552.9220466754393,0.815194368761899,0.9505923546278257,0.9753404279796919
1552.9135977883832,0.8146205255632277,0.9615807522450475,0.9673670956352509
1552.905148993261,0.8151560262029544,0.9713610845524107,0.9588770252524114
1552.896700290072,0.8167747871634491,0.9798066303424326,0.9500866035419077
1552.888251678814,0.8194440537576068,0.9868219707278898,0.941197447424307
1552.8798031594854,0.823123936156529,0.992347083385877,0.932392718599912
1552.8713547320851,0.8277668173760651,0.9963596101334365,0.9238349970250728
1552.8629063966118,0.8333168879940982,0.9988750169449977,0.9156656110739662
1552.8544581530632,0.8397099686849631,0.9999446712975164,0.9080051397818278
1552.8460100014386,0.8468736467330629,0.9996521545094796,0.9009546742940314
1552.8375619417359,0.8547276327011996,0.9981083290410504,0.8945973944446399
1552.8291139739542,0.863184187041358,0.9954457476825413,0.8890000933436004
1552.8206660980914,0.8721484952344215,0.9918129246371656,0.884214440859626
1552.8122183141463,0.8815189699471125,0.9873688318261854,0.8802779601613846
1552.8037706221173,0.8911875861352277,0.9822778049648324,0.8772148367074444
1552.7953230220035,0.9010404544534347,0.9767049074462995,0.8750367395053661
1552.7868755138022,0.9109588648486282,0.9708117431693187,0.8737437975173786
1552.778428097513,0.9208209692760464,0.9647527312654604,0.8733257655199737
1552.769980773134,0.9305041382694152,0.9586719206742136,0.8737632859731534
1552.7615335406633,0.9398878662763572,0.9527004793356996,0.8750290645321704
1552.7530864000998,0.948856970074168,0.9469549965611613,0.8770887666815848
1552.7446393514422,0.9573047660372987,0.941536669860739,0.8799015179852417
1552.736192394689,0.9651359401466362,0.9365313248642944,0.8834200216526229
1552.727745529838,0.9722689214582932,0.9320100817277432,0.8875904425451434
1552.7192987568883,0.97863769311155,0.9280303851126621,0.8923522928585553
1552.7108520758384,0.9841930763129013,0.9246370960109599,0.8976385580239912
1552.7024054866868,0.9889035669078697,0.9218634116632436,0.9033762215860556
1552.6939589894314,0.9927557828910316,0.9197315105446932,0.9094872173788785
1552.6855125840714,0.9957545154529301,0.9182529648447394,0.9158897077720726
1552.677066270605,0.9979223060194649,0.9174290700977272,0.9224995075407325
1552.6686200490312,0.9992984393706104,0.9172512740433952,0.9292314719735586
1552.6601739193477,0.999937273262164,0.917701837373768,0.9360007398712633
1552.6517278815534,0.9999059165246031,0.918754753810902,0.942723832895731
1552.6432819356467,0.999281390683978,0.9203768424224577,0.9493197120725108
1552.6348360816264,0.998147520177444,0.9225288502369374,0.9557109359645274
1552.6263903194906,0.9965918508417226,0.9251663992486996,0.9618250323779097
1552.617944649238,0.9947028728438562,0.9282406801974117,0.9675960976747172
1552.609499070867,0.9925677288279171,0.931698907636572,0.9729665133807623
1552.6010535843766,0.9902704537146196,0.9354846605225119,0.9778885688563984
1552.5926081897644,0.9878906661519244,0.9395382947386381,0.9823257427988464
1552.5841628870296,0.9855025556649614,0.9437976028668388,0.9862534415192367
1552.5757176761701,0.9831740061130396,0.9481988157888531,0.9896591030582422
1552.5672725571856,0.9809657586272208,0.9526779217118639,0.9925417127866415
1552.5588275300731,0.9789306142209635,0.9571721669012577,0.9949108889025501
1552.550382594832,0.977112764202369,0.9616215410475094,0.9967857462644141
1552.5419377514606,0.9755473776871801,0.9659700603271311,0.998193721130241
1552.5334929999574,0.9742605527713983,0.9701667357774044,0.999169454247384
1552.5250483403206,0.9732696611477667,0.9741662212850987,0.9997537246483869
1552.5166037725492,0.9725840173082274,0.9779292302650424,0.9999923467315814
1552.5081592966417,0.9722057239586192,0.9814228552642178,0.9999349217983674
1552.4997149125961,0.9721305178425272,0.9846209039316651,0.9996333798545033
1552.4912706204111,0.9723484764709192,0.9875042892324717,0.9991403379087714
1552.4828264200855,0.9728445320986281,0.9900614152169702,0.9985073979123464
1552.4743823116178,0.9735988405967302,0.9922884242377067,0.9977835687921106
1552.4659382950058,0.9745871296063953,0.9941891505757359,0.9970139952667171
1552.4574943702487,0.9757811726181316,0.9957746699865454,0.99623910945197
1552.4490505373449,0.977149495461201,0.997062429028496,0.995494214138092
1552.4406067962927,0.9786583360692843,0.9980750463573114,0.9948093997609995
1552.4321631470907,0.9802727819760468,0.9988389589666609,0.9942096309933536
1552.4237195897374,0.9819579411369708,0.9993831091169549,0.9937148375982893
1552.4152761242312,0.9836799869867148,0.9997378249208096,0.9933399058911073
1552.406832750571,0.9854069626323564,0.9999339574724475,0.9930945652177902
1552.3983894687549,0.9871093127332617,1.0000022362743943,0.9929832577896934
1552.3899462787813,0.988760200443855,0.9999727321945429,0.9930051320658301
1552.381503180649,0.9903357250079398,0.999874300443705,0.9931542893247236
1552.3730601743566,0.9918151604213739,0.999733919256085,0.9934203452534075
1552.3646172599022,0.9931812865622054,0.9995759229686745,0.9937892713663256
1552.3561744372844,0.9944208023927107,0.9994212153254802,0.9942443942638896
1552.3477317065021,0.9955247311066958,0.9992866032458544,0.9947673887586594
1552.3392890675534,0.9964886825956819,0.9991843901028209,0.995339119848246
1552.3308465204368,0.9973128485376157,0.999122310657983,0.9959402596969061
1552.322404065151,0.9980016666802445,0.9991037996917903,0.9965516996303695
1552.3139617016946,0.9985631799023638,0.9991284987501955,0.9971548554085592
1552.3055194300655,0.9990081978103527,0.999192854641074,0.9977319953404812
1552.2970772502629,0.9993494123706949,0.9992906685510119,0.9982666932007923
1552.288635162285,0.9996006083646835,0.9994135124355635,0.9987444334807798
1552.2801931661304,0.9997760499887846,0.9995510151790508,0.9991533061977393
1552.2717512617974,0.999890041600128,0.9996910995548758,0.999484659450912
1552.2633094492846,0.9999565872427861,0.9998202903181702,0.9997335584933216
1552.2548677285904,0.9999890392955426,0.9999241981029178,0.99989893851242
1552.246426099714,0.9999996442041272,0.9999882198207736,0.9999834196604075
1552.2379845626529,0.9999989544266609,0.9999984099453116,0.9999928452236445
1552.229543117406,0.9999951546154826,0.9999424031914601,0.999935671358663
1552.2211017639718,0.9999934139238108,0.9998102371078617,0.9998223540660445
1552.212660502349,0.999995398869485,0.9995949454856652,0.9996648410542478
1552.204219332536,0.999999052931056,0.9992928609371212,0.999476199936227
1552.195778254531,0.9999986810646001,0.9989036505487497,0.9992703318554049
1552.1873372683328,0.9999852964582338,0.9984301784797601,0.9990616650137664
1552.1788963739402,0.9999471247698252,0.9978783170140879,0.9988647177241736
1552.170455571351,0.9998701415546608,0.9972568036273923,0.9986934670992366
1552.1620148605643,0.9997385479307004,0.9965771777686458,0.9985605380142047
1552.1535742415783,0.9995351543377381,0.9958537548554182,0.9984763054461286
1552.1451337143915,0.9992417150014475,0.995103538564325,0.9984480498899546
1552.1366932790024,0.9988393059684689,0.9943459595370827,0.9984793015876539
1552.1282529354096,0.9983088462700583,0.9936023648681165,0.9985694565721944
1552.1198126836116,0.9976318215925314,0.9928952539253714,0.9987136673834331
1552.1113725236069,0.996791198427418,0.9922473338131331,0.9989029358462133
1552.1029324553938,0.9957724422266045,0.99168052123788,0.9991242943407475
1552.094492478971,0.99456450493868,0.9912150257017911,0.9993609711037468
1552.0860525943374,0.9931606442533784,0.9908686090928596,0.9995924894719259
1552.0776128014907,0.9915589798169572,0.9906560452822833,0.9997947275564718
1552.0691731004297,0.9897627634543351,0.990588729114951,0.9999400317382809
1552.0607334911529,0.9877804129380597,0.9906743367512097,0.9999975067519953
1552.0522939736593,0.9856254043852142,0.9909164371936929,0.9999335842714352
1552.0438545479467,0.9833161206983897,0.9913139982001382,0.9997129081835838
1552.035415214014,0.9808757140956464,0.9918608006869192,0.9992994923805373
1552.0269759718594,0.9783319780321849,0.9925448454695405,0.9986580371788327
1552.018536821482,0.9757171652178867,0.9933478769718163,0.9977552591421325
1552.0100977628797,0.9730676593692804,0.994245144509046,0.9965611061990504
1552.001658796051,0.9704234218318971,0.9952054751897287,0.9950497862198863
1551.9932199209948,0.9678271856715471,0.996191662536053,0.993200608079406
